Temperature (K)	Pressure (MPa)	"Density (l, mol/m3)"	"Volume (l, m3/mol)"	"Internal Energy (l, kJ/mol)"	"Enthalpy (l, kJ/mol)"	"Entropy (l, J/mol*K)"	"Cv (l, J/mol*K)"	"Cp (l, J/mol*K)"	"Density (v, mol/m3)"	"Volume (v, m3/mol)"	"Internal Energy (v, kJ/mol)"	"Enthalpy (v, kJ/mol)"	"Entropy (v, J/mol*K)"	"Cv (v, J/mol*K)"	"Cp (v, J/mol*K)"
274	0.000650016	55499.77135	1.80E-05	0.063837584	0.063849296	0.23334178	75.94462571	75.97192141	0.285498856	3.502641009	42.80564645	45.08241769	164.5346863	25.56508582	33.96212705
275	0.000698451	55502.22213	1.80E-05	0.139780887	0.139793471	0.510002633	75.90295117	75.91537403	0.305665682	3.271548158	42.83043797	45.1154546	164.0578613	25.58010486	33.98017836
276	0.000750056	55503.7235	1.80E-05	0.215669717	0.21568323	0.785461538	75.85945661	75.86292772	0.327069749	3.057451819	42.85522003	45.14847916	163.5854468	25.59523719	33.99840888
277	0.000805006	55504.3062	1.80E-05	0.291508018	0.291522521	1.05974146	75.81422045	75.81427707	0.349774668	2.85898349	42.87999237	45.18149105	163.1173896	25.61047642	34.01681292
278	0.000863487	55503.99917	1.80E-05	0.367299445	0.367315002	1.332864064	75.76731559	75.76914529	0.373846617	2.674893804	42.90475472	45.21448989	162.653637	25.62581653	34.03538521
279	0.000925691	55502.8297	1.80E-05	0.443047389	0.443064067	1.604849838	75.71880981	75.72728082	0.399354417	2.504041419	42.92950683	45.24747531	162.1941374	25.64125184	34.05412093
280	0.00099182	55500.82353	1.80E-05	0.518754999	0.51877287	1.875718187	75.66876605	75.68845445	0.426369594	2.345383007	42.95424842	45.28044694	161.7388399	25.65677709	34.07301574
281	0.001062085	55498.00503	1.80E-05	0.594425208	0.594444346	2.145487531	75.61724279	75.65245672	0.454966457	2.197964232	42.97897919	45.31340439	161.2876941	25.67238744	34.09206578
282	0.001136705	55494.39723	1.80E-05	0.670060747	0.67008123	2.414175378	75.56429436	75.61909581	0.485222167	2.060911614	43.00369887	45.34634727	160.8406507	25.68807851	34.11126774
283	0.001215908	55490.02197	1.80E-05	0.745664161	0.745686073	2.6817984	75.50997128	75.5881956	0.517216809	1.933425177	43.02840715	45.37927515	160.3976608	25.70384636	34.13061887
284	0.001299934	55484.89995	1.80E-05	0.821237829	0.821261257	2.948372498	75.45432055	75.55959406	0.551033463	1.81477182	43.05310372	45.41218762	159.9586766	25.71968756	34.15011698
285	0.00138903	55479.05083	1.80E-05	0.896783973	0.89680901	3.213912857	75.39738594	75.53314181	0.58675828	1.704279316	43.07778827	45.44508424	159.5236505	25.73559916	34.16976045
286	0.001483456	55472.49329	1.80E-05	0.972304671	0.972331413	3.478433999	75.33920827	75.50870087	0.624480554	1.601330888	43.10246047	45.47796459	159.092536	25.75157873	34.18954829
287	0.00158348	55465.2451	1.80E-05	1.04780187	1.047830419	3.741949831	75.27982571	75.4861436	0.664292794	1.5053603	43.12712001	45.5108282	158.665287	25.76762434	34.20948011
288	0.001689383	55457.32317	1.80E-05	1.123277393	1.123307856	4.004473688	75.21927394	75.46535169	0.706290802	1.415847407	43.15176653	45.54367461	158.2418582	25.78373462	34.22955614
289	0.001801455	55448.74365	1.80E-05	1.198732948	1.198765436	4.26601837	75.15758649	75.44621537	0.75057374	1.332314131	43.17639968	45.57650334	157.8222049	25.7999087	34.24977723
290	0.001919999	55439.52189	1.80E-05	1.274170138	1.27420477	4.526596179	75.09479486	75.42863264	0.797244213	1.254320802	43.20101912	45.60931391	157.4062829	25.81614625	34.27014485
291	0.00204533	55429.67259	1.80E-05	1.349590467	1.349627367	4.78621895	75.03092875	75.41250865	0.846408335	1.181462845	43.22562446	45.64210581	156.9940487	25.83244747	34.29066113
292	0.002177774	55419.20977	1.80E-05	1.42499535	1.425034646	5.044898085	74.96601627	75.39775505	0.898175811	1.11336777	43.25021535	45.67487855	156.5854594	25.8488131	34.31132879
293	0.00231767	55408.14684	1.80E-05	1.500386112	1.500427941	5.302644574	74.90008407	75.38428955	0.952660006	1.049692434	43.2747914	45.70763158	156.1804727	25.86524438	34.33215119
294	0.002465369	55396.49662	1.81E-05	1.575764003	1.575808507	5.559469025	74.83315753	75.3720354	1.009978021	0.990120556	43.29935221	45.74036439	155.7790469	25.88174309	34.35313229
295	0.002621236	55384.2714	1.81E-05	1.651130196	1.651177524	5.815381686	74.76526086	75.360921	1.070250771	0.934360458	43.32389738	45.77307642	155.3811407	25.89831151	34.37427667
296	0.002785649	55371.48293	1.81E-05	1.726485796	1.726536104	6.070392466	74.69641727	75.35087953	1.133603054	0.882143001	43.3484265	45.80576712	154.9867135	25.91495241	34.39558949
297	0.002959	55358.14251	1.81E-05	1.801831842	1.801885294	6.324510957	74.62664905	75.34184859	1.200163631	0.833219716	43.37293916	45.83843591	154.5957252	25.93166907	34.41707649
298	0.003141694	55344.26094	1.81E-05	1.877169314	1.87722608	6.577746449	74.55597771	75.33376994	1.270065296	0.787361093	43.39743492	45.87108222	154.2081362	25.9484652	34.43874398
299	0.003334151	55329.84862	1.81E-05	1.952499135	1.952559394	6.830107953	74.48442407	75.32658916	1.343444953	0.744355024	43.42191335	45.90370545	153.8239075	25.96534501	34.46059882
300	0.003536807	55314.91552	1.81E-05	2.027822176	2.027886115	7.081604211	74.4120083	75.32025546	1.420443686	0.704005382	43.446374	45.93630499	153.4430005	25.98231314	34.48264839
301	0.003750111	55299.47123	1.81E-05	2.103139257	2.103207072	7.332243715	74.33875006	75.31472139	1.50120684	0.666130725	43.47081642	45.96888022	153.0653771	25.99937463	34.50490061
302	0.003974527	55283.52496	1.81E-05	2.178451155	2.178523048	7.58203472	74.26466855	75.30994269	1.585884086	0.630563109	43.49524014	46.00143053	152.6909999	26.01653496	34.52736387
303	0.004210539	55267.08557	1.81E-05	2.253758601	2.253834786	7.830985259	74.18978253	75.30587805	1.674629501	0.59714701	43.51964469	46.03395526	152.3198317	26.03379998	34.55004703
304	0.004458641	55250.16161	1.81E-05	2.329062288	2.329142987	8.079103151	74.11411044	75.30248894	1.767601637	0.565738331	43.54402959	46.06645376	151.9518359	26.05117592	34.57295941
305	0.004719348	55232.76128	1.81E-05	2.404362871	2.404448316	8.326396017	74.0376704	75.29973946	1.864963594	0.536203497	43.56839435	46.09892536	151.5869765	26.06866932	34.59611077
306	0.00499319	55214.89251	1.81E-05	2.479660971	2.479751403	8.572871291	73.96048026	75.29759615	1.966883092	0.508418626	43.59273848	46.13136939	151.2252177	26.08628711	34.61951127
307	0.005280714	55196.56292	1.81E-05	2.554957175	2.555052846	8.818536225	73.88255764	75.29602791	2.073532544	0.482268775	43.61706146	46.16378517	150.8665242	26.10403647	34.64317144
308	0.005582486	55177.77988	1.81E-05	2.630252042	2.630353214	9.063397905	73.80391997	75.29500578	2.185089125	0.457647237	43.64136277	46.19617198	150.5108614	26.12192489	34.66710219
309	0.005899087	55158.55048	1.81E-05	2.7055461	2.705653048	9.307463256	73.7245845	75.29450289	2.301734843	0.434454908	43.6656419	46.22852913	150.1581949	26.13996014	34.69131477
310	0.006231118	55138.88157	1.81E-05	2.780839854	2.780952862	9.550739052	73.64456834	75.29449431	2.423656612	0.412599704	43.68989832	46.26085588	149.8084907	26.15815021	34.71582075
311	0.006579199	55118.77977	1.81E-05	2.856133784	2.856253148	9.793231925	73.56388847	75.29495693	2.551046315	0.391996019	43.71413147	46.29315149	149.4617154	26.17650332	34.74063199
312	0.006943969	55098.25146	1.81E-05	2.931428346	2.931554375	10.03494837	73.48256173	75.29586939	2.684100881	0.372564238	43.73834082	46.32541524	149.1178357	26.19502791	34.76576062
313	0.007326083	55077.30282	1.82E-05	3.006723978	3.006856993	10.27589475	73.40060489	75.29721194	2.823022344	0.354230282	43.76252581	46.35764635	148.7768192	26.21373259	34.79121903
314	0.00772622	55055.93982	1.82E-05	3.082021096	3.08216143	10.51607732	73.31803461	75.29896638	2.96801792	0.33692519	43.78668587	46.38984406	148.4386335	26.23262615	34.81701986
315	0.008145076	55034.16823	1.82E-05	3.157320101	3.157468101	10.7555022	73.23486745	75.30111599	3.119300066	0.32058474	43.81082042	46.42200759	148.1032466	26.25171751	34.84317595
316	0.008583369	55011.99362	1.82E-05	3.232621376	3.232777403	10.99417541	73.15111991	75.30364538	3.277086551	0.305149096	43.8349289	46.45413615	147.7706271	26.27101575	34.86970032
317	0.009041836	54989.4214	1.82E-05	3.30792529	3.308089719	11.23210287	73.0668084	75.30654048	3.441600521	0.290562485	43.8590107	46.48622894	147.440744	26.29053002	34.8966062
318	0.009521236	54966.4568	1.82E-05	3.383232198	3.383405417	11.4692904	72.98194927	75.30978845	3.613070561	0.276772895	43.88306524	46.51828515	147.1135663	26.31026962	34.92390697
319	0.010022348	54943.10486	1.82E-05	3.458542443	3.458724856	11.70574372	72.89655878	75.31337758	3.791730762	0.263731806	43.90709191	46.55030395	146.7890637	26.3302439	34.95161614
320	0.010545976	54919.3705	1.82E-05	3.533856355	3.534048382	11.94146846	72.8106531	75.31729728	3.977820782	0.25139393	43.93109009	46.5822845	146.4672063	26.35046228	34.97974737
321	0.011092943	54895.25847	1.82E-05	3.609174257	3.609376332	12.17647017	72.72424835	75.32153796	4.171585911	0.239716986	43.95505917	46.61422598	146.1479644	26.37093427	35.00831444
322	0.011664094	54870.77335	1.82E-05	3.68449646	3.684709034	12.41075432	72.63736056	75.32609101	4.373277129	0.228661475	43.97899853	46.64612751	145.8313086	26.39166937	35.03733122
323	0.012260299	54845.91962	1.82E-05	3.759823267	3.760046808	12.6443263	72.55000565	75.33094872	4.583151172	0.21819049	44.00290752	46.67798824	145.51721	26.41267716	35.06681169
324	0.01288245	54820.70158	1.82E-05	3.835154974	3.835389966	12.87719144	72.46219949	75.33610425	4.801470586	0.208269525	44.0267855	46.70980729	145.20564	26.43396723	35.09676991
325	0.013531462	54795.12345	1.82E-05	3.910491871	3.910738817	13.10935497	72.37395783	75.34155158	5.028503792	0.198866311	44.05063183	46.74158377	144.8965702	26.45554917	35.12722
326	0.014208274	54769.18927	1.83E-05	3.985834241	3.986093662	13.34082209	72.28529633	75.34728542	5.264525142	0.189950655	44.07444585	46.77331678	144.5899728	26.47743259	35.15817618
327	0.014913849	54742.903	1.83E-05	4.061182362	4.061454796	13.57159792	72.19623054	75.35330121	5.509814973	0.181494298	44.0982269	46.80500542	144.28582	26.49962711	35.1896527
328	0.015649174	54716.26847	1.83E-05	4.136536508	4.136822514	13.8016875	72.10677591	75.35959508	5.764659671	0.173470778	44.1219743	46.83664878	143.9840846	26.52214231	35.22166388
329	0.016415263	54689.28938	1.83E-05	4.21189695	4.212197105	14.03109585	72.01694775	75.36616377	6.029351721	0.16585531	44.14568738	46.86824591	143.6847396	26.5449878	35.25422411
330	0.017213152	54661.96935	1.83E-05	4.287263953	4.287578855	14.25982791	71.92676129	75.37300461	6.304189765	0.158624667	44.16936544	46.89979589	143.3877583	26.56817315	35.2873478
331	0.018043903	54634.31187	1.83E-05	4.362637783	4.36296805	14.48788857	71.83623159	75.38011551	6.589478655	0.151757074	44.19300781	46.93129776	143.0931143	26.59170791	35.32104943
332	0.018908606	54606.32035	1.83E-05	4.438018701	4.438364972	14.71528268	71.7453736	75.38749488	6.885529508	0.145232113	44.21661377	46.96275057	142.8007815	26.61560163	35.35534351
333	0.019808374	54577.99809	1.83E-05	4.513406967	4.513769904	14.94201503	71.65420212	75.39514163	7.192659756	0.139030628	44.24018261	46.99415335	142.5107341	26.63986381	35.39024461
334	0.020744349	54549.34829	1.83E-05	4.588802842	4.589183128	15.16809036	71.56273182	75.40305512	7.511193198	0.13313464	44.26371363	47.02550511	142.2229466	26.66450396	35.42576734
335	0.021717698	54520.37408	1.83E-05	4.664206583	4.664604924	15.39351339	71.4709772	75.41123515	7.841460056	0.127527271	44.2872061	47.05680487	141.9373938	26.68953154	35.46192637
336	0.022729615	54491.07848	1.84E-05	4.73961845	4.740035575	15.61828877	71.37895262	75.41968191	8.183797017	0.122192669	44.3106593	47.08805162	141.6540508	26.71495601	35.49873642
337	0.023781322	54461.46443	1.84E-05	4.8150387	4.815475363	15.84242111	71.28667228	75.42839595	8.538547289	0.117115941	44.33407247	47.11924437	141.3728929	26.74078681	35.53621226
338	0.024874068	54431.53479	1.84E-05	4.890467592	4.890924571	16.06591501	71.19415018	75.43737821	8.906060647	0.112283089	44.35744489	47.15038208	141.0938958	26.76703334	35.57436872
339	0.02600913	54401.29234	1.84E-05	4.965905386	4.966383483	16.288775	71.1014002	75.44662992	9.28669348	0.107680953	44.3807758	47.18146372	140.8170353	26.79370503	35.61322071
340	0.027187814	54370.73978	1.84E-05	5.041352342	5.041852387	16.51100559	71.00843602	75.45615261	9.680808837	0.103297154	44.40406443	47.21248826	140.5422876	26.82081124	35.65278319
341	0.028411454	54339.87974	1.84E-05	5.116808723	5.11733157	16.73261123	70.91527113	75.46594811	10.08877648	0.099120047	44.42731003	47.24345465	140.2696291	26.84836139	35.6930712
342	0.029681411	54308.71477	1.84E-05	5.192274792	5.192821323	16.95359638	70.82191885	75.47601851	10.51097292	0.095138672	44.45051181	47.27436181	139.9990364	26.87636484	35.73409989
343	0.030999078	54277.24735	1.84E-05	5.267750814	5.268321939	17.17396542	70.72839231	75.48636613	10.94778147	0.091342707	44.47366901	47.30520869	139.7304866	26.90483099	35.77588446
344	0.032365875	54245.4799	1.84E-05	5.343237058	5.343833713	17.39372273	70.63470446	75.49699352	11.39959227	0.087722436	44.49678082	47.33599419	139.4639567	26.93376922	35.81844023
345	0.033783253	54213.41475	1.84E-05	5.418733792	5.419356945	17.61287265	70.54086804	75.50790344	11.86680238	0.084268699	44.51984645	47.36671722	139.1994242	26.96318895	35.8617826
346	0.035252692	54181.0542	1.85E-05	5.494241289	5.494891935	17.83141947	70.44689561	75.51909884	12.34981576	0.080972868	44.5428651	47.39737669	138.9368667	26.99309957	35.90592711
347	0.036775703	54148.40045	1.85E-05	5.569759824	5.570438989	18.04936748	70.35279951	75.53058285	12.84904334	0.077826806	44.56583596	47.42797148	138.6762623	27.02351053	35.95088938
348	0.038353827	54115.45567	1.85E-05	5.645289675	5.645998416	18.26672093	70.2585919	75.54235877	13.36490308	0.07482284	44.58875821	47.45850046	138.4175889	27.05443129	35.99668517
349	0.039988635	54082.22195	1.85E-05	5.720831122	5.721570527	18.48348403	70.16428472	75.55443002	13.89781998	0.071953731	44.61163102	47.48896251	138.1608249	27.08587134	36.04333037
350	0.04168173	54048.70132	1.85E-05	5.79638445	5.797155638	18.69966098	70.06988972	75.5668002	14.44822614	0.069212649	44.63445355	47.51935647	137.9059491	27.11784019	36.09084099
351	0.043434745	54014.89577	1.85E-05	5.871949944	5.872754069	18.91525595	69.97541844	75.57947302	15.0165608	0.066593144	44.65722497	47.54968119	137.6529401	27.1503474	36.13923319
352	0.045249345	53980.80723	1.85E-05	5.947527895	5.948366144	19.13027307	69.8808822	75.59245229	15.60327035	0.064089129	44.67994443	47.57993551	137.401777	27.18340256	36.18852327
353	0.047127227	53946.43756	1.85E-05	6.023118598	6.023992191	19.34471646	69.78629213	75.60574195	16.20880842	0.06169485	44.70261106	47.61011826	137.152439	27.21701531	36.23872767
354	0.04907012	53911.78859	1.85E-05	6.098722348	6.099632541	19.55859021	69.69165913	75.61934602	16.83363587	0.059404873	44.72522401	47.64022825	136.9049058	27.25119533	36.28986301
355	0.051079784	53876.86208	1.86E-05	6.174339448	6.175287532	19.77189838	69.59699391	75.63326862	17.47822086	0.057214061	44.7477824	47.67026427	136.6591568	27.28595236	36.34194604
356	0.053158012	53841.65975	1.86E-05	6.2499702	6.250957503	19.98464503	69.50230696	75.64751395	18.14303888	0.055117558	44.77028535	47.70022514	136.4151721	27.32129616	36.39499369
357	0.055306629	53806.18328	1.86E-05	6.325614914	6.3266428	20.19683415	69.40760857	75.66208627	18.82857278	0.05311077	44.79273197	47.73010962	136.1729317	27.35723656	36.44902302
358	0.057527494	53770.43427	1.86E-05	6.401273901	6.402343774	20.40846976	69.3129088	75.67698992	19.53531279	0.051189352	44.81512137	47.75991651	135.9324159	27.39378345	36.50405129
359	0.059822498	53734.41431	1.86E-05	6.476947478	6.478060777	20.61955583	69.21821752	75.6922293	20.26375662	0.049349191	44.83745265	47.78964455	135.6936053	27.43094675	36.56009591
360	0.062193565	53698.12493	1.86E-05	6.552635962	6.55379417	20.83009629	69.12354437	75.70780885	21.01440942	0.047586396	44.85972489	47.8192925	135.4564806	27.46873643	36.61717445
361	0.064642654	53661.56761	1.86E-05	6.62833968	6.629544316	21.04009509	69.02889881	75.72373307	21.78778387	0.045897279	44.88193718	47.84885912	135.2210225	27.50716253	36.67530465
362	0.067171755	53624.74379	1.86E-05	6.704058956	6.705311582	21.24955613	68.93429008	75.74000649	22.58440018	0.044278351	44.9040886	47.87834313	134.9872123	27.5462351	36.7345044
363	0.069782893	53587.65487	1.87E-05	6.779794124	6.781096344	21.45848329	68.83972719	75.7566337	23.40478618	0.042726304	44.9261782	47.90774325	134.7550312	27.58596427	36.79479178
364	0.072478127	53550.30221	1.87E-05	6.855545518	6.856898977	21.66688044	68.74521898	75.77361931	24.24947727	0.041238002	44.94820505	47.93705821	134.5244607	27.62636018	36.85618498
365	0.07525955	53512.68712	1.87E-05	6.931313479	6.932719866	21.87475142	68.65077407	75.79096796	25.11901655	0.039810476	44.9701682	47.9662867	134.2954825	27.66743301	36.91870238
366	0.07812929	53474.81088	1.87E-05	7.007098348	7.008559397	22.08210006	68.55640087	75.80868432	26.01395478	0.038440906	44.9920667	47.99542743	134.0680783	27.70919298	36.98236248
367	0.081089509	53436.67473	1.87E-05	7.082900475	7.084417963	22.28893016	68.46210762	75.82677309	26.93485047	0.037126622	45.01389958	48.02447908	133.8422302	27.75165033	37.04718395
368	0.084142402	53398.27986	1.87E-05	7.15872021	7.160295961	22.49524551	68.36790231	75.84523899	27.88226989	0.035865086	45.03566588	48.05344033	133.6179204	27.79481529	37.11318555
369	0.0872902	53359.62744	1.87E-05	7.234557909	7.236193794	22.70104986	68.27379278	75.86408675	28.8567871	0.034653893	45.05736462	48.08230984	133.3951313	27.83869814	37.1803862
370	0.090535171	53320.71858	1.88E-05	7.310413932	7.312111868	22.90634697	68.17978666	75.88332112	29.85898401	0.033490758	45.07899481	48.11108628	133.1738454	27.88330912	37.24880492
371	0.093879614	53281.55437	1.88E-05	7.386288642	7.388050596	23.11114055	68.08589136	75.90294688	30.88945041	0.032373512	45.10055548	48.1397683	132.9540454	27.92865849	37.31846084
372	0.097325866	53242.13587	1.88E-05	7.462182408	7.464010394	23.31543432	67.99211415	75.9229688	31.94878398	0.031300096	45.12204561	48.16835453	132.7357143	27.97475647	37.38937318
373	0.100876298	53202.46408	1.88E-05	7.5380956	7.539991684	23.51923196	67.89846207	75.94339169	33.03759036	0.030268551	45.14346421	48.19684362	132.518835	28.02161327	37.46156125
374	0.104533318	53162.54	1.88E-05	7.614028596	7.615994892	23.72253715	67.80494198	75.96422034	34.15648317	0.029277019	45.16481028	48.22523418	132.3033909	28.06923904	37.53504443
375	0.108299367	53122.36456	1.88E-05	7.689981774	7.692020451	23.92535352	67.71156058	75.98545958	35.30608408	0.02832373	45.18608278	48.25352483	132.0893652	28.11764389	37.60984215
376	0.112176924	53081.93869	1.88E-05	7.765955519	7.768068797	24.12768472	67.61832436	76.00711424	36.48702279	0.027407005	45.20728071	48.28171419	131.8767416	28.16683786	37.6859739
377	0.116168504	53041.26325	1.89E-05	7.841950218	7.844140371	24.32953436	67.52523963	76.02918914	37.69993711	0.026525243	45.22840303	48.30980085	131.6655038	28.21683093	37.76345919
378	0.120276655	53000.3391	1.89E-05	7.917966264	7.92023562	24.53090603	67.43231256	76.05168913	38.94547301	0.025676925	45.24944871	48.3377834	131.4556356	28.26763296	37.84231756
379	0.124503965	52959.16706	1.89E-05	7.994004052	7.996354995	24.73180332	67.33954911	76.07461908	40.22428462	0.024860604	45.27041671	48.36566044	131.2471211	28.31925374	37.92256853
380	0.128853054	52917.74791	1.89E-05	8.070063983	8.072498952	24.93222978	67.24695508	76.09798384	41.53703429	0.024074901	45.29130598	48.39343053	131.0399445	28.37170291	38.00423163
381	0.133326581	52876.0824	1.89E-05	8.146146461	8.148667952	25.13218896	67.15453609	76.12178828	42.88439265	0.023318507	45.31211549	48.42109226	130.83409	28.42499001	38.08732634
382	0.13792724	52834.17125	1.89E-05	8.222251893	8.224862462	25.33168439	67.06229763	76.14603729	44.26703862	0.022590172	45.33284416	48.44864419	130.6295423	28.4791244	38.1718721
